,Magnetic Field (Oe),True Field (Oe),Field correction
1,0.169,-2284.1251764362937,2284.2941764362936
2,124.5655,-2317.6139564993564,2442.1794564993565
3,177.67,-1026.4979419038455,1204.1679419038455
4,271.7335,1286.2916870070142,-1014.5581870070141
5,374.5515,3572.6317927361647,-3198.0802927361647
6,489.516,5857.467063433719,-5367.951063433719
7,616.7695,8139.013795431145,-7522.244295431145
8,738.234,10424.054304635778,-9685.820304635778
9,859.9795,12699.297465216216,-11839.317965216216
10,994.013,14977.051876855858,-13983.038876855857
11,1116.4655,17241.52744537838,-16125.061945378378
12,1231.572,19513.311401482624,-18281.739401482624
13,1362.7795,21770.85171103732,-20408.07221103732
14,1484.242,24030.537512513514,-22546.295512513516
15,1606.694,26286.39122048391,-24679.69722048391
16,1726.6035,28536.01516059717,-26809.41166059717
17,1841.428,30774.00999990991,-28932.58199990991
18,1980.122,33013.52040752253,-31033.398407522527
19,2104.6915,35242.49310213385,-33137.80160213385
20,2217.1135,37465.28947319948,-35248.17597319948
21,2342.2485,39682.84938780566,-37340.60088780566
22,2460.8865,41888.53848396139,-39427.65198396139
23,2584.0425,44089.02067215187,-41504.97817215187
24,2707.199,46285.100302604886,-43577.901302604885
25,2829.2265,48472.618313324325,-45643.39181332433
26,2952.3825,50652.59184382239,-47700.20934382239
27,3069.1825,52831.451281510934,-49762.26878151093
28,3185.419,54991.5069479807,-51806.0879479807
29,3303.21,57159.10099905662,-53855.890999056624
30,3425.237,59312.85190329215,-55887.614903292146
31,3541.0485,61470.32346981468,-57929.27496981468
32,3661.5215,63610.68919363707,-59949.167693637064
33,3781.712,65753.78435578635,-61972.07235578635
34,3907.127,67892.31122932304,-63985.18422932304
35,4027.036,70023.87370852251,-65996.83770852251
36,4131.2675,72149.4818826538,-68018.2143826538
37,4250.891,74265.20757786487,-70014.31657786487
38,4380.2615,76382.45432233333,-72002.19282233334
39,4494.52,78485.93172479278,-73991.41172479278
40,4596.7725,80599.88947236679,-76003.11697236678
41,4720.2105,82696.05751922136,-77975.84701922136
42,4833.1985,84790.66579831403,-79957.46729831403
43,4946.6095,86895.5752648417,-81948.96576484169
44,5065.952,88974.94339194594,-83908.99139194594
45,5171.736,91059.49850244273,-85887.76250244273
46,5293.6195,93141.56246555726,-87847.94296555726
47,5410.702,95213.75429669369,-89803.05229669368
48,5517.0505,97280.31800501287,-91763.26750501287
49,5628.6245,99352.44254014414,-93723.81804014414
50,5749.239,101417.8043506538,-95668.5653506538
51,5950.78,103467.11187338996,-97516.33187338997
52,6024.3615,105514.29158356499,-99489.93008356499
53,6242.99,109608.97321861003,-103365.98321861002
54,6313.1825,111646.32333067697,-105333.14083067697
55,6424.1925,113694.6740769189,-107270.4815769189
56,6538.0265,115711.76888502446,-109173.74238502447
57,6662.171,117731.04771802961,-111068.87671802961
58,6765.412,119758.83768738738,-112993.42568738738
59,6972.4585,121784.84192114156,-114812.38342114157
60,7045.3345,123801.56639960875,-116756.23189960876
61,7170.326,125789.05642711198,-118618.73042711198
62,7288.116,127808.71071463062,-120520.59471463063
63,7390.368,129817.35898124194,-122426.99098124194
64,7497.9855,131793.10111041184,-124295.11561041184
65,7619.8685,135785.89949085587,-128166.03099085587
66,7741.612,137745.47119316086,-130003.85919316087
67,7869.569,139736.5799036036,-131867.0109036036
68,7987.216,141700.6214872857,-133713.4054872857
69,8098.6485,143695.80293486745,-135597.15443486744
70,8214.6,145624.90498965638,-137410.30498965638
71,8324.6195,147593.221727982,-139268.602227982
72,8435.064,149548.12572630116,-141113.06172630115
73,8545.225,151498.53476447103,-142953.30976447102
74,8648.7475,153417.9083570579,-144769.1608570579
75,8753.26,155390.75738118275,-146637.49738118274
76,8853.394,157291.3035112574,-148437.9095112574
77,8952.6805,159219.11694582368,-150266.4364458237
78,9057.6155,161158.4447848121,-152100.8292848121
79,9156.619,163057.4906872098,-153900.8716872098
80,9260.8495,164973.5391981287,-155712.6896981287
81,9365.645,166871.8120740386,-157506.16707403862
82,9468.886,168762.7500144839,-159293.8640144839
83,9576.6455,170682.256785574,-161105.61128557398
84,9679.462,172556.5217899202,-162877.0597899202
85,9781.856,174440.88238254053,-164659.02638254053
86,9888.204,176326.08365076577,-166437.87965076577
87,9994.2685,178188.36634618146,-168194.09784618145
88,10096.0975,180059.4094038713,-169963.3119038713
89,10197.2195,181953.61938968985,-171756.39988968984
90,10302.577,183794.36586173874,-173491.78886173875
91,10407.9375,185635.0069350103,-175227.0694350103
92,10788.2745,191125.9871462677,-180337.7126462677
93,10844.7675,192952.0329163166,-182107.2654163166
94,10934.4515,194810.8182125444,-183876.3667125444
95,11025.688,196630.32353003218,-185604.6355300322
96,11126.2455,198445.65933640153,-187319.41383640154
97,11230.1905,200268.86815481982,-189038.67765481982
98,11329.6165,202074.9987759537,-190745.38227595369
99,11427.773,203884.00202239252,-192456.22902239254
100,11530.3065,205693.4392089601,-194163.1327089601
101,11628.886,207509.81670972714,-195880.93070972714
102,11731.28,209298.86142783915,-197567.58142783915
103,11833.8145,211109.74096711454,-199275.92646711454
104,11931.6875,212914.30820788932,-200982.62070788932
105,12028.996,214715.47760365639,-202686.48160365637
106,12128.99,216485.35186407078,-204356.3618640708
107,12232.796,218273.9780626036,-206041.1820626036
108,12329.397,220050.44176082496,-207721.04476082497
109,12431.649,221828.3749665135,-209396.7259665135
110,12537.9975,223608.3588352973,-211070.3613352973
111,12634.4575,225380.76066298326,-212746.30316298327
112,12736.1435,227171.69519219306,-214435.55169219305
113,12837.5485,228926.22699667697,-216088.67849667696
114,12933.445,230691.52016224584,-217758.07516224583
115,13034.2855,232451.6076036319,-219417.32210363192
116,13131.311,234217.97319310938,-221086.6621931094
117,13226.7825,235955.2756275804,-222728.4931275804
118,13329.176,237724.578139462,-224395.402139462
119,13426.6265,239497.63171065768,-226071.00521065766
120,13521.958,241230.609099704,-227708.65109970397
121,13622.5155,243015.09735143115,-229392.58185143114
122,13717.847,244729.34876902832,-231011.5017690283
123,13813.884,246477.2905656448,-232663.4065656448
124,13918.255,248220.52962500256,-234302.27462500255
125,14018.67,249970.60837699872,-235951.9383769987
126,14115.272,251703.68029488032,-237588.40829488033
127,14214.275,253483.70513230632,-239269.43013230633
128,14308.9,255183.00498198712,-240874.10498198713
129,14404.2325,256919.69229895753,-242515.4597989575
130,14499.1395,258653.82211665506,-244154.68261665507
131,14594.6115,260402.67108085973,-245808.05958085973
132,14688.814,262138.29616185202,-247449.482161852
133,14784.852,263853.34604063706,-249068.49404063704
134,14886.5385,265627.85118794726,-250741.31268794727
135,14981.728,267317.5310969961,-252335.8030969961
136,15080.732,269040.6028329408,-253959.87083294083
137,15183.832,270793.0074691068,-255609.17546910682
138,15282.551,272520.3615729395,-257237.8105729395
139,15378.1635,274245.10401655984,-258866.94051655984
140,15547.643,275981.15912607464,-260433.51612607462
141,15598.7685,277705.5324151853,-262106.7639151853
142,15689.5795,279389.68460726255,-263700.10510726256
143,15783.9225,281125.93272069754,-265342.01022069756
144,15887.7295,282824.8737255264,-266937.14422552637
145,15973.598,284578.5860420631,-268604.9880420631
146,16055.5105,286287.30386960105,-270231.7933696011
147,16149.4295,287989.1755695045,-271839.7460695045
148,16252.3875,289734.64004483656,-273482.25254483655
149,16396.301,293173.93247739767,-276777.6314773977
150,16539.368,294861.63188215316,-278322.26388215314
151,16638.796,296595.71675125865,-279956.9207512587
152,16728.9025,298298.72390181466,-281569.82140181464
153,16831.4355,299988.18551444786,-283156.75001444784
154,16930.0145,301743.86543449166,-284813.85093449167
155,17019.2735,303462.5072362317,-286443.2337362317
156,17117.713,305155.1627950656,-288037.4497950656
157,17217.845,306877.6783893745,-289659.83338937454
158,17312.6105,308574.2521917297,-291261.6416917297
159,17401.7285,310316.6430296769,-292914.9145296769
160,17496.0705,312017.8197317992,-294521.74923179916
161,17594.508,313725.0155039537,-296130.50750395365
162,17697.747,315419.42662955855,-297721.6796295586
163,17796.4675,317164.4485437362,-299367.9810437362
164,17894.4825,318882.11478416214,-300987.63228416216
165,17992.639,320543.8271890682,-302551.18818906817
166,18086.2755,322284.3417378442,-304198.06623784424
167,18180.4785,323983.30087817373,-305802.8223781737
168,18274.539,325700.1410117568,-307425.6020117568
169,18372.9755,327414.83885042474,-309041.86335042474
170,18472.967,329110.3074855778,-310637.3404855778
171,18581.8545,330826.8478792497,-312244.9933792497
172,18689.0495,332555.22835577605,-313866.17885577603
173,18786.078,334270.9766487838,-315484.8986487838
174,18880.1365,335958.705632695,-317078.569132695
175,18978.15,337681.40980134875,-318703.25980134873
176,19081.25,339371.4165847143,-320290.1665847143
177,19271.207,342786.26765161776,-323515.06065161776
178,19325.157,344512.2089571467,-325187.0519571467
179,19431.6455,346226.1269295586,-326794.4814295586
180,19543.6415,347939.24047944526,-328395.59897944523
181,19637.279,349648.7843272072,-330011.5053272072
182,19807.461,351341.46588589705,-331534.00488589704
183,19873.6985,353062.15742025484,-333188.45892025484
184,19976.2315,354755.6743695019,-334779.4428695019
185,20140.484,358179.8365726422,-338039.3525726422
186,20198.248,359865.300791323,-339667.052791323
187,20309.255,361566.39862009266,-341257.14362009265
188,20416.0255,363317.6779061107,-342901.6524061107
189,20506.131,365004.49669078377,-344498.3656907838
190,20604.286,366731.92924280954,-346127.6432428095
191,20716.8475,368442.1847629318,-347725.3372629318
192,20821.501,370150.7966881493,-349329.2956881493
193,20919.248,371820.370719471,-350901.122719471
194,21021.9425,373568.02864883526,-352546.08614883525
195,21129.424,375266.3621532059,-354136.9381532059
196,21299.1865,378665.718329166,-357366.531829166
197,21450.7285,380368.9860886731,-358918.2575886731
198,21518.378,383782.34322162805,-362263.965221628
199,21688.1405,385444.85581926897,-363756.715319269
200,21742.0905,387223.6596706126,-365481.5691706126
201,21836.0095,388927.5963836563,-367091.58688365633
202,21934.3075,390621.61830732564,-368687.31080732564
203,22032.322,392304.41556170786,-370272.0935617079
204,22125.817,394037.30062565504,-371911.48362565506
205,22224.115,395748.17744214286,-373524.06244214287
206,22327.6375,397428.69267235266,-375101.05517235264
207,22431.7255,399141.69763839897,-376709.97213839897
208,22534.4025,400904.48050182493,-378370.0780018249
209,22641.597,402541.73610511457,-379900.13910511456
210,22743.9895,404260.2696524337,-381516.28015243367
211,22845.959,405987.6727830334,-383141.7137830334
212,22951.176,407702.7050054659,-384751.5290054659
213,23047.4965,409389.50836096524,-386342.0118609652
214,23145.3705,411123.05534353154,-387977.6848435315
215,23239.43,412809.8413797066,-389570.4113797066
216,23337.0205,414492.39679094724,-391155.37629094726
217,23509.6075,417914.58786285325,-394404.98036285327
218,23567.2295,419667.5672399215,-396100.33773992147
219,23661.571,421342.36329781724,-397680.79229781724
220,23770.037,423051.63462961256,-399281.59762961254
221,23873.1365,424759.104792574,-400885.968292574
222,23962.959,426463.1237728546,-402500.16477285465
223,24066.6215,428176.17911022395,-404109.55761022394
224,24173.5345,429857.7999885109,-405684.2654885109
225,24279.7415,431573.9503249022,-407294.2088249022
226,24383.8285,433306.62420852506,-408922.79570852505
227,24493.0005,435056.6648695637,-410563.6643695637
228,24595.676,436654.0376957182,-412058.3616957182
229,24693.408,438444.1690037709,-413750.7610037709
230,24791.8465,440155.6969494878,-415363.8504494878
231,24894.24,443514.6281508932,-418620.3881508932
232,25093.2345,445296.7159537349,-420203.48145373486
233,25150.0095,446979.6287455727,-421829.6192455727
234,25256.5,448638.7455145366,-423382.2455145366
235,25355.0805,450386.10131802445,-425031.02081802447
236,25455.3535,452116.00639720465,-426660.6528972046
237,25568.4785,455519.00920093054,-429950.5307009305
238,25675.249,457264.77767104766,-431589.52867104765
239,25777.9255,458958.76937894593,-433180.8438789459
240,25956.865,460658.0729121583,-434701.20791215834
241,26015.7585,462320.82551391376,-436305.06701391377
242,26118.998,464088.137847121,-437969.13984712097
243,26218.5665,465779.7300794401,-439561.1635794401
244,26315.7345,467497.8014428945,-441182.0669428945
245,26420.9515,469172.71538907336,-442751.76388907334
246,26598.0555,472633.7965731133,-446035.7410731133
247,26647.7675,474326.6037283488,-447678.8362283488
248,26746.348,476070.13778143626,-449323.78978143627
249,26847.894,477784.85047426,-450936.95647425996
250,26947.0385,479385.05700383394,-452438.0185038339
251,27117.079,481166.00750228704,-454048.928502287
252,27259.724,484593.6933099421,-457333.9693099421
253,27321.4405,486232.6022425187,-458911.16174251866
254,27518.0355,487984.53066506435,-460466.49516506435
255,27570.5735,489729.5354293629,-462158.9619293629
256,27663.6445,491441.7425288198,-463778.09802881983
257,27762.2235,493133.3102837297,-465371.08678372967
258,27865.6045,496576.6502471892,-468711.0457471892
259,27978.873,498243.2963896216,-470264.4233896216
260,28095.53,499985.7667844054,-471890.2367844054
261,28207.526,501688.55004713644,-473481.0240471364
262,28302.151,503417.6177669279,-475115.4667669279
263,28391.126,505129.53203379404,-476738.40603379405
264,28492.9535,506828.24806229083,-478335.29456229083
265,28678.5325,510219.3528219923,-481540.8203219923
266,28749.2885,511925.47792727675,-483176.1894272767
267,28866.6515,513606.6504036383,-484739.99890363833
268,28975.6825,515354.3649955855,-486378.6824955855
269,29073.415,517084.99846199225,-488011.58346199227
271,30992.889,549287.2274836152,-518294.33848361514
272,31118.16,552646.8860273437,-521528.7260273437
273,31175.6405,554340.1572479935,-523164.51674799353
274,31277.751,556064.8612811377,-524787.1102811376
275,31378.308,557740.1279485881,-526361.8199485881
276,31486.9145,559516.8785548983,-528029.9640548984
277,31598.0625,561170.9696412432,-529572.9071412432
278,31705.539,562885.9055320102,-531180.3665320103
279,31808.919,564671.814962462,-532862.8959624621
280,31984.894,568039.4982953887,-536054.6042953887
281,32037.5735,569774.440860072,-537736.867360072
282,32136.012,571480.2302543257,-539344.2182543257
283,32239.8155,573190.3092939446,-540950.4937939446
284,32338.819,574893.9459091454,-542555.1269091454
285,32441.778,576575.4047757606,-544133.6267757606
286,32540.074,578334.5283258468,-545794.4543258467
287,32716.049,580025.97587561,-547309.92687561
288,32769.4345,581716.7815842857,-548947.3470842857
289,32868.295,583431.0511593204,-550562.7561593204
290,32971.1115,585158.2896326653,-552187.1781326653
291,33073.221,586839.3981669318,-553766.1771669318
292,33182.1095,590255.2683690167,-557073.1588690167
293,33294.8125,592002.100461556,-558707.287961556
294,33397.4885,593763.2661729073,-560365.7776729073
295,33496.3495,595457.3227875932,-561960.9732875932
296,33590.408,597146.7922002291,-563556.3842002291
297,33688.1405,598851.3814175379,-565163.240917538
298,33790.6755,600550.128073,-566759.452573
299,33891.656,602297.8150580515,-568406.1590580515
300,34070.3125,603921.0544154582,-569850.7419154582
301,34132.877,605647.9515592896,-571515.0745592896
302,34241.0605,607366.6317253591,-573125.5712253591
303,34404.1835,610840.9240618725,-576436.7405618725
304,34462.369,612564.5046383474,-578102.1356383475
305,34636.084,614228.4092987219,-579592.3252987219
306,34762.625,617688.5026671803,-582925.8776671803
307,34829.2875,619384.7690608867,-584555.4815608867
308,34936.4825,621090.5035311815,-586154.0210311814
309,35035.201,622800.0052930464,-587764.8042930464
310,35129.543,624502.2540074324,-589372.7110074324
311,35228.4065,626212.7680056538,-590984.3615056537
312,35328.539,627968.3632102021,-592639.8242102021
313,35423.164,629648.1179947002,-594224.9539947002
314,35516.801,631409.5272145328,-595892.7262145329
315,35615.0975,633065.0916699639,-597449.9941699639
316,35709.863,634831.264040332,-599121.401040332
317,35804.629,636484.1005840733,-600679.4715840734
318,35902.7855,638185.6086183578,-602282.8231183578
319,36001.3635,639982.2959314659,-603980.932431466
320,36098.8125,641648.7569595791,-605549.9444595791
321,36197.3925,643345.3242723681,-607147.9317723681
322,36296.6775,645065.8280081699,-608769.1505081699
323,36394.9745,646731.4726306229,-610336.4981306229
324,36489.176,648487.2651818687,-611998.0891818687
325,36589.309,650192.7632031827,-613603.4542031827
326,36694.102,651875.6677950772,-615181.5657950772
327,36787.877,653654.7982092432,-616866.9212092432
328,36961.5935,655364.6041166423,-618403.0106166423
329,37010.1775,657050.6825624569,-620040.5050624569
330,37108.4725,658759.2947595328,-621650.8222595328
331,37207.8985,660482.4539757413,-623274.5554757413
332,37304.0785,662123.5855235998,-624819.5070235997
333,37398.5625,663948.8740335213,-626550.3115335213
334,37546.289,665650.1165554157,-628103.8275554157
335,37608.8535,669047.6448746833,-631438.7913746834
336,37724.6645,670754.5791152497,-633029.9146152497
337,37831.1525,672428.8778555766,-634597.7253555766
338,37930.7185,674123.2042571622,-636192.4857571622
339,38027.32,675872.3859022253,-637845.0659022253
340,38125.334,677678.9252983436,-639553.5912983436
341,38232.1055,679254.9166020682,-641022.8111020683
342,38335.0645,681011.4262119832,-642676.3617119832
343,38442.541,682788.0379259742,-644345.4969259743
344,38549.877,684499.0583950875,-645949.1813950875
345,38649.8675,686174.0886942316,-647524.2211942315
346,38745.621,687793.5427048494,-649047.9217048493
347,38835.3025,689581.9797136731,-650746.6772136731
348,38933.74,691290.8031388958,-652357.0631388958
349,39035.709,693026.7895029678,-653991.0805029678
350,39133.301,694689.2038818327,-655555.9028818327
351,39235.9765,696452.402283556,-657216.425783556
352,39339.3555,698142.9755242355,-658803.6200242356
353,39437.6525,699842.6251895546,-660404.9726895547
354,39535.1035,701516.4922102226,-661981.3887102227
355,39630.4335,703317.1740201403,-663686.7405201403
356,39720.963,705024.9174029948,-665303.9544029948
357,39815.871,706653.0010733937,-666837.1300733937
358,39915.439,708420.6100924736,-668505.1710924736
359,40005.543,710206.4406998726,-670200.8976998726
360,40085.6195,711845.8673405431,-671760.247840543
361,40169.3695,713532.061025677,-673362.691525677
362,40265.266,715267.2850258455,-675002.0190258455
363,40364.553,717026.7098135134,-676662.1568135135
364,40466.9455,718599.8416777002,-678132.8961777001
365,40570.1835,720411.4397393719,-679841.2562393718
366,40664.3845,722101.8773885701,-681437.4928885701
367,40758.586,723875.9472749421,-683117.361274942
368,40857.4475,725509.5863099215,-684652.1388099215
369,40947.2715,727278.7496965225,-686331.4781965225
370,41032.0095,728988.3304890682,-687956.3209890681
371,41134.5425,730690.048612946,-689555.506112946
372,41242.16,732366.0661416409,-691123.9061416409
373,41332.2655,734092.5075694427,-692760.2420694428
374,41421.8045,735802.9193292188,-694381.1148292188
375,41514.875,737504.5041868597,-695989.6291868597
376,41603.994,739251.0020498983,-697647.0080498983
377,41693.6755,740926.8942549163,-699233.2187549163
378,41789.4295,742659.9618045277,-700870.5323045277
379,41885.326,744345.6213938185,-702460.2953938185
380,41983.3395,746069.4853127645,-704086.1458127645
381,42090.252,747742.2500269022,-705651.9980269022
382,42197.8715,749530.7088649317,-707332.8373649317
383,42300.6875,751179.481294269,-708878.793794269
384,42399.125,752888.0557654917,-710488.9307654917
385,42489.51,754695.4017566615,-712205.8917566615
386,42570.717,756375.4595243977,-713804.7425243978
387,42660.965,758038.144716157,-715377.179716157
388,42754.883,759765.4723252445,-717010.5893252444
