,Magnetic Field (Oe),True Field (Oe)
1,50000.207,51668.00309403336
2,49982.2595,51685.90787431019
3,49971.1075,51677.70361456376
4,49952.182,51597.549571527175
5,49929.1605,51575.743029327146
6,49901.4785,51590.296244227204
7,49874.502,51649.20366422872
8,49850.352,51479.473715100765
9,49823.801,51439.70525556214
10,49798.662,51433.61799913186
11,49771.9685,51521.09423891611
12,49744.1445,51423.78843159493
13,49719.8535,51343.48887436456
14,49694.574,51360.29283192613
15,49668.871,51367.87556337148
16,49644.58,51245.1357103045
17,49618.875,51213.290995937765
18,49592.465,51302.33046709453
19,49567.3245,51194.52193347514
20,49541.338,51166.57924249164
21,49515.07,51147.457091606375
22,49490.9195,51216.36887014342
23,49466.203,51140.267727446444
24,49441.346,50981.619852434706
25,49416.4905,51029.26442415096
26,49389.373,51059.37091314825
27,49363.8105,51030.8800357231
28,49339.66,50991.58981613363
29,49314.3785,50929.716306634306
30,49288.109,50878.85691788882
31,49263.252,50911.501978648244
32,49241.221,50851.268359594076
33,49216.506,50873.89952985155
34,49189.8125,50832.055632469615
35,49164.248,50779.776494725935
36,49139.25,50766.224940005995
37,49115.949,50772.82264003855
38,49090.3865,50659.52733496835
39,49064.963,50627.33012050785
40,49041.5195,50679.836721113155
41,49015.533,50521.224688930444
42,48991.8065,50710.7036335775
43,48967.7985,50604.497497413635
44,48941.6695,50553.58921253974
45,48919.074,50616.83598108643
46,48895.205,50455.541621850825
47,48870.912,50395.888654837865
48,48846.199,50431.87643369847
49,48820.918,50452.307869950455
50,48797.756,50389.19937805754
51,48773.748,50390.95690775347
52,48749.5955,50342.211448789356
53,48724.031,50398.14578466385
54,48700.4455,50252.02982721137
55,48677.5665,50214.13352804048
56,48652.004,50195.31155877793
57,48628.135,50138.125171036285
58,48605.1155,50193.192794449955
59,48580.4005,50124.921005867494
60,48556.8145,50196.54402691823
61,48533.6525,50120.88524368916
62,48508.6545,50142.17085828359
63,48484.0825,49963.16393877084
64,48460.92,50024.23070851622
65,48438.1815,50043.45626160253
66,48413.467,50044.43501507204
67,48388.75,49911.486137895736
68,48365.0235,49872.99559965935
69,48342.002,49943.78021883429
70,48318.8395,49871.11731153735
71,48293.5605,49804.85183345739
72,48269.553,49870.053628926624
73,48248.2265,49761.880009537206
74,48225.205,49811.1950179101
75,48200.631,49755.259865890635
76,48177.75,49811.91651467285
77,48155.4375,49704.22907060491
78,48131.5705,49650.02981611733
79,48108.6895,49516.19748043071
80,48085.1035,49678.56613749472
81,48060.5295,49619.53272680102
82,48036.803,49665.651457220665
83,48012.934,49510.81148873887
84,47989.2075,49556.75178984864
85,47966.6115,49454.91226936618
86,47943.873,49457.436239413844
87,47920.287,49508.29038545756
88,47897.832,49461.74254613942
89,47874.9515,49372.612460615484
90,47852.4945,49392.52741487744
91,47829.758,49345.98124491905
92,47805.6075,49346.55760824101
93,47783.293,49319.03762239704
94,47760.414,49306.162329408966
95,47736.6855,49189.591236643
96,47714.6525,49166.65231709928
97,47691.635,49269.58033041189
98,47667.344,49234.475350910594
99,47645.4515,49157.69957985268
100,47623.135,49169.56559009754
101,47599.125,49125.33206239383
102,47578.084,49134.66244207554
103,47556.4765,49095.48896205796
104,47533.738,49026.41537011996
105,47510.859,49105.467337677735
106,47486.992,48996.46753577025
107,47464.8165,48930.496281638836
108,47443.4885,49007.81848340257
109,47420.6115,49050.24207783288
110,47397.875,48944.46575002373
111,47374.8535,48890.01943965371
112,47352.539,48939.79368239831
113,47331.213,48895.22697418602
114,47308.6155,48801.78304775407
115,47286.4415,48874.392104237624
116,47263.703,48851.97723008754
117,47241.3905,48878.26224750578
118,47219.3575,48725.52262078657
119,47195.912,48684.23141204424
120,47173.5995,48666.131589238365
121,47151.1445,48687.8396573769
122,47130.0995,48698.31618013624
123,47108.209,48590.010874110274
124,47084.908,48648.65212413435
125,47063.0175,48575.75414711168
126,47041.549,48578.78813639471
127,47019.5155,48537.57275485387
128,46996.777,48504.26775847995
129,46974.322,48517.58632174483
130,46953.5625,48436.260976617974
131,46932.377,48428.32464394976
132,46908.791,48315.32337924822
133,46886.9005,48328.2506455346
134,46866.139,48428.02252005951
135,46844.1055,48428.25143563959
136,46821.369,48405.3177889465
137,46798.7755,48206.064198471824
138,46776.885,48225.91451466903
139,46756.4045,48265.9195860427
140,46735.076,48255.65362699489
141,46713.045,48231.841597834704
142,46691.438,48202.629198866416
143,46669.264,48156.45533418996
144,46647.09,48159.52504519261
145,46625.1995,48146.960211063255
146,46603.0275,48041.210240888686
147,46580.8555,48025.55949574886
148,46559.8125,48024.13018575082
149,46539.615,48055.24542905382
150,46518.8535,48063.296427472866
151,46495.2675,47940.846348165695
152,46472.3865,47977.46797392197
153,46452.758,47944.363382482734
154,46431.434,47828.615884920204
155,46409.4005,47756.42054178192
156,46386.8025,47913.21043316988
157,46365.4765,47898.7654832884
158,46344.715,47872.199911683834
159,46322.4005,47815.69810579822
160,46300.51,47718.00906586361
161,46280.3145,47777.44565060243
162,46259.836,47724.74836606409
163,46237.096,47702.93061346927
164,46214.7835,47741.523228404825
165,46193.602,47696.32216985707
166,46172.557,47655.41690484414
167,46151.512,47710.38011165408
168,46128.916,47638.44698343494
169,46107.3065,47597.36084306016
170,46088.24,47635.894236689
171,46065.785,47557.21170825187
172,46043.754,47480.26856212378
173,46023.418,47533.53048999064
174,46001.8085,47462.08292743778
175,45980.623,47425.82291667505
176,45958.873,47358.7039437068
177,45937.125,47392.07557243283
178,45916.3655,47387.06848997857
179,45894.8965,47390.12765006136
180,45874.418,47351.978835011316
181,45854.223,47342.93283221387
182,45831.625,47340.39446837768
183,45809.875,47323.298416754515
184,45789.256,47219.835988730025
185,45767.789,47222.10174347493
186,45745.8985,47191.072022423825
187,45724.291,47202.19965130306
188,45703.3885,47126.64749553662
189,45682.627,47179.43206806327
190,45662.008,47088.17966157399
191,45641.248,47113.510144346525
192,45619.498,46992.32836454106
193,45598.453,47039.35842376219
194,45577.5505,47057.612704376035
195,45555.5175,46964.5239527413
196,45535.1795,47064.08352532618
197,45514.5605,46922.9807560957
198,45492.389,46958.74725812821
199,45470.7815,46969.93737322037
200,45451.008,46934.8611914496
201,45431.2345,46870.261884125626
202,45409.0625,46828.1515669555
203,45386.324,46852.98391814614
204,45364.7145,46852.744225911425
205,45343.529,46817.065304133444
206,45323.7575,46762.44901810905
207,45303.281,46744.58087758205
208,45282.0955,46668.75607156366
209,45261.1935,46785.07745395446
210,45239.4435,46635.14711504271
211,45218.824,46581.27549699031
212,45198.629,46618.98938166168
213,45176.7385,46683.737068644936
214,45155.5525,46658.7596471564
215,45134.791,46658.00058285957
216,45113.7485,46585.02371824686
217,45093.553,46472.289474548066
218,45071.662,46545.16456738475
219,45050.195,46396.966828115386
220,45030.705,46472.616592050785
221,45010.508,46419.47518074106
222,44987.9105,46370.21946230196
223,44966.1605,46417.1949987286
224,44945.8245,46333.72252782152
225,44925.2055,46357.48604184367
226,44904.1625,46284.66523377132
227,44882.6955,46290.11981998339
228,44862.076,46313.04246364614
229,44841.8785,46174.897596029514
230,44820.5505,46235.001024589605
231,44799.5095,46155.07210904928
232,44780.0215,46192.201296030544
233,44760.2485,46135.30876883033
234,44738.215,46265.56126181623
235,44716.1835,46144.72355623241
236,44694.717,46113.36656832114
237,44673.8145,46168.27936974077
238,44654.326,46085.341201254545
239,44633.1405,46033.746485058735
240,44612.0955,45981.65313921016
241,44592.041,45983.00440155272
242,44570.8575,46015.39626661019
243,44549.3905,46004.36020956738
244,44528.7715,45944.138555575715
245,44508.5765,45911.258207712686
246,44486.8245,45852.361604907775
247,44466.344,45903.48671143693
248,44444.596,45893.99105727297
249,44422.9905,45846.10844953126
250,44403.7835,45825.07232823641
251,44383.0195,45708.39406002363
252,44362.398,45748.88855445491
253,44341.498,45761.80672739978
254,44320.0315,45664.04418832429
255,44299.129,45726.80300161993
256,44277.803,45671.83445570293
257,44257.3245,45712.22504822223
258,44237.553,45653.15317707625
259,44215.9455,45641.41440833907
260,44195.8905,45587.01087900556
261,44176.4005,45516.87866957302
262,44154.086,45560.90053977952
263,44132.617,45510.66925598733
264,44111.998,45498.74638433871
265,44091.0975,45574.828447776075
266,44070.902,45544.01956944018
267,44050.1425,45428.64861416033
268,44028.3905,45481.583361321456
269,44007.6285,45402.501260664154
270,43987.576,45416.86660465391
271,43965.826,45386.76809762392
272,43945.207,45315.74980051028
273,43924.7285,45245.766056183755
274,43904.531,45278.81114868754
275,43884.7575,45314.7711742082
276,43863.291,45273.32986779631
277,43841.1195,45250.175505647676
278,43820.3575,45202.860766773025
279,43801.4315,45174.67489104677
280,43781.66,45198.75406690399
281,43760.617,45123.45684625535
282,43739.0075,45148.618406446854
283,43716.9745,45129.40426767935
284,43696.3555,45074.89859068703
285,43676.4435,45059.7190479177
286,43655.541,45044.18043647658
287,43635.203,45032.84507803585
288,43614.8675,44949.96236793497
289,43594.389,44954.56805764223
290,43573.627,44975.218416529126
291,43552.3005,44992.21601702462
292,43530.832,44905.24983562286
293,43510.0725,44879.540897197396
294,43489.453,44904.303674953684
295,43469.3965,44793.96920169871
296,43447.223,44827.89348742493
297,43426.182,44817.31010331663
298,43407.8225,44789.078407931396
299,43388.049,44728.217650908955
300,43367.1485,44753.67205969117
301,43345.822,44715.10880370759
302,43325.908,44710.655292416406
303,43305.1485,44687.22865784634
304,43283.539,44699.50023371598
305,43262.6365,44630.04889328928
306,43241.877,44585.27486959641
307,43221.963,44602.099966816895
308,43201.0585,44528.64890430878
309,43179.168,44542.97263198939
310,43158.832,44556.625010924596
311,43139.201,44495.12532971701
312,43119.287,44489.60124756663
313,43097.82,44462.732300070726
314,43077.0605,44414.05795103077
315,43056.582,44419.35339694456
316,43034.5485,44382.06541792063
317,43013.082,44419.68076680217
318,42993.168,44381.35355236647
319,42973.8185,44311.63127083035
320,42952.7755,44258.33366941327
321,42931.7325,44214.69303183237
322,42910.4085,44259.760715437485
323,42889.6485,44182.02480334148
324,42869.875,44232.13514878717
325,42848.549,44254.66026583955
326,42827.506,44208.01681947214
327,42808.8615,44068.91269651561
328,42788.807,44144.26944456713
329,42767.057,44085.66807502967
330,42747.2855,44082.26550302841
331,42726.809,44019.17224669497
332,42705.1995,44067.907324050124
333,42684.014,43944.3710908166
334,42663.254,44017.847398286256
335,42642.492,43883.78834290726
336,42621.7305,43968.772764810325
337,42601.959,44009.32260356396
338,42582.328,43844.83243243113
339,42560.295,43911.999198110454
340,42539.1095,43971.165157043346
341,42520.4685,43867.764403699584
342,42500.5545,43830.14619566293
343,42479.2285,43791.281069981356
344,42457.4805,43858.9628937341
345,42436.719,43767.290901892455
346,42417.2265,43775.891995439415
347,42396.609,43740.4202845387
348,42375.1445,43660.11913127306
349,42354.664,43707.101178715755
350,42334.8905,43609.44090006423
351,42314.2715,43667.910461773914
352,42292.381,43527.51688845113
353,42272.467,43606.306021255696
354,42252.6955,43582.82221902671
355,42231.3695,43567.07505719528
356,42210.043,43544.71462054827
357,42189.283,43492.0643874985
358,42169.5115,43522.6604063562
359,42149.033,43474.10763136439
360,42127.707,43421.82118645837
361,42105.957,43370.62914984119
362,42085.9005,43357.47824617911
363,42066.4105,43410.63877766314
364,42045.791,43390.687741694346
365,42025.5955,43391.12488176192
366,42005.541,43385.56191301692
367,41984.3555,43268.833790336925
368,41964.303,43231.94745184298
369,41943.684,43237.51790005266
370,41921.6505,43197.23928607378
371,41901.172,43174.7827700773
372,41881.5415,43192.93606991688
373,41861.063,43232.15356865548
374,41839.7365,43094.146850080935
375,41819.117,43090.55215172856
376,41797.791,43128.511163447605
377,41777.7345,43059.8040330185
378,41757.256,43092.22410588397
379,41736.0725,43054.773586432675
380,41716.0175,43008.83452141369
381,41696.1035,43055.25118926249
382,41675.344,43015.07006317767
383,41653.594,42982.54802498699
384,41633.961,42957.98997716976
385,41613.3415,42878.7621209385
386,41592.2985,42843.118488210835
387,41571.82,42865.10227059158
388,41551.0605,42884.216641334664
389,41531.006,42811.28620414993
390,41510.668,42781.52883145936
391,41489.908,42731.53707358587
392,41468.2985,42732.75723220423
393,41448.1015,42788.2052345797
394,41428.754,42724.44156260588
395,41408.9825,42626.290963284766
396,41388.08,42717.8618441735
397,41366.754,42648.417377611986
398,41345.9925,42684.932407227
399,41325.6565,42582.17902048756
400,41304.754,42597.41970157362
401,41283.992,42574.745045176736
402,41263.375,42523.888406230864
403,41241.9085,42519.13992352439
404,41221.5685,42581.788422831385
405,41202.2185,42513.48447701583
406,41182.023,42431.29330360608
407,41161.2615,42475.71486644328
408,41141.209,42483.77066768493
409,41120.166,42379.2381627466
410,41099.121,42390.24253542015
411,41077.5135,42339.13231543215
412,41056.8925,42377.58500863579
413,41038.25,42276.92786187482
414,41017.3495,42244.545442042814
415,40995.3165,42241.14765275009
416,40974.9785,42268.48771013905
417,40954.6425,42269.48177424183
418,40934.871,42206.06150754426
419,40915.662,42232.962439951574
420,40893.7715,42230.208190494486
421,40873.154,42169.59106473917
422,40854.0875,42127.05210195518
423,40831.6305,42094.84816337724
424,40810.3045,42045.42724782552
425,40790.533,42091.74220751178
426,40770.3355,41969.06525219575
427,40750.988,41995.613524677
428,40730.088,42007.73174235929
429,40709.043,41935.551009390656
430,40688.1405,41970.99041073236
431,40668.086,41964.385903077855
432,40647.3245,41888.958735047134
433,40625.5745,41945.16114588834
434,40605.662,41881.661275278035
435,40584.7595,41888.13909741224
436,40563.574,41888.223874129355
437,40543.5195,41789.81352140842
438,40523.6055,41788.73610329524
439,40504.117,41771.643960015936
440,40483.6385,41687.04830976677
441,40462.172,41653.88279973855
442,40441.2695,41700.09505941251
443,40421.2145,41693.105715118705
444,40400.3145,41707.67627164862
445,40378.141,41686.74014564362
446,40358.086,41609.36649143015
447,40338.031,41619.536868902745
448,40317.129,41568.24695973055
449,40297.3555,41632.14131456037
450,40276.736,41455.16599521785
451,40255.9765,41570.38941608284
452,40236.0605,41517.458543150526
453,40215.158,41449.648291535836
454,40192.8455,41438.337010833806
455,40172.5075,41407.51190526582
456,40153.158,41376.4888937675
457,40132.6795,41458.43903175777
458,40112.625,41348.66113300189
459,40091.4415,41350.57268308392
460,40070.822,41388.89219833407
461,40051.7555,41345.87387103283
462,40030.711,41301.513503318274
463,40008.8205,41193.641368361925
464,39989.33,41228.06360244632
465,39969.84,41210.82917076406
466,39949.0805,41082.07371129507
467,39928.602,41169.347126791625
468,39907.135,41114.128447549716
469,39885.951,41138.25513934173
470,39865.8965,41125.099514300615
471,39845.2755,41119.08738565429
472,39823.668,41129.25687771471
473,39803.6135,41089.10203406185
474,39783.84,41072.22752040343
475,39763.3615,41050.35145624938
476,39742.7425,40980.16675941251
477,39720.9925,40935.71677412323
478,39700.2305,40947.2865672184
479,39680.457,40888.64732994531
480,39661.25,40933.333100857955
481,39640.3495,40797.374162578795
482,39620.154,40839.42085513464
483,39598.2635,40899.01968073305
484,39575.242,40712.841160717355
485,39556.033,40848.94908197319
486,39537.674,40785.13828218444
487,39517.055,40822.58334318549
488,39495.7285,40720.7435407179
489,39476.662,40686.5702589289
490,39455.336,40674.747777351695
491,39434.8595,40749.08695101895
492,39415.3695,40631.579468098294
493,39393.76,40624.06727712249
494,39372.293,40661.2447310161
495,39351.955,40647.76048575349
496,39332.041,40547.16111406057
497,39311.139,40637.72913669936
498,39290.096,40477.953891258214
499,39269.4765,40553.025409258735
500,39249.281,40476.5647534506
501,39230.074,40490.38022190525
502,39210.0195,40458.361864631064
503,39189.541,40425.23676891475
504,39169.91,40419.838833034315
505,39147.879,40339.7050212474
506,39125.7055,40389.2572910301
507,39105.932,40363.05920138109
508,39085.594,40300.66980402891
509,39065.1155,40290.59837651634
510,39044.637,40294.64479680633
511,39023.594,40194.58861187419
512,39003.258,40253.60316068639
513,38983.4845,40254.03077917034
514,38963.289,40229.91136360948
515,38942.8125,40170.77717548335
516,38920.496,40130.5197036734
517,38898.4645,40117.111806899266
518,38879.963,40117.0071796059
519,38860.6135,40069.25604763141
520,38839.994,39952.42583599436
521,38819.797,40031.529845919
522,38799.3205,40056.39813830977
523,38777.5705,40029.7513248582
524,38756.9515,39961.83471348284
525,38737.039,39930.83243560529
526,38715.8515,39926.274092636995
527,38696.078,39890.60783934028
528,38676.447,39883.50793807766
529,38656.252,39902.46565075781
530,38634.6445,39905.08475182298
531,38612.613,39796.6635674096
532,38593.6895,39817.18162150569
533,38573.7775,39746.34347784495
534,38552.451,39733.50285535918
535,38531.828,39759.5744356519
536,38510.926,39757.28534718076
537,38490.4475,39723.34327195891
538,38470.8165,39666.05978898486
539,38450.34,39706.145155192215
540,38428.4495,39602.342865974395
541,38407.686,39559.35969916331
542,38388.055,39633.51629134894
543,38368.9905,39565.22876059597
544,38348.3695,39514.57887212375
545,38325.914,39477.802784446285
546,38306.0015,39538.46417630902
547,38286.9355,39459.027770143846
548,38266.3145,39480.17994614736
549,38244.1425,39449.52501286571
550,38222.8165,39451.2535736681
551,38203.465,39325.27098989191
552,38183.412,39412.770380462214
553,38163.6425,39413.921418563215
554,38142.598,39318.45264951745
555,38121.131,39314.948081530354
556,38102.205,39333.738985783064
557,38080.877,39232.98299091302
558,38060.1155,39309.53868494444
559,38040.9085,39206.20794672139
560,38019.1605,39172.581879191916
561,37998.258,39091.822450600244
562,37978.627,39161.7656480037
563,37957.7245,39177.153370846056
564,37937.6695,39128.326203952485
565,37917.898,39098.96940672485
566,37895.3025,39094.39006160465
567,37873.412,39109.86737954323
568,37853.213,39074.935119306094
569,37833.8635,39001.69087808409
570,37815.082,39019.99547978002
571,37793.4745,38927.00710487457
572,37771.4415,39001.34632068033
573,37751.8105,38936.18949699807
574,37731.7555,38904.49899314855
575,37711.418,38917.15509271693
576,37691.6465,38926.27199146905
577,37671.166,38862.25573966844
578,37649.84,38801.43918397594
579,37630.211,38795.33499292535
580,37609.59,38691.78535203575
581,37587.9805,38786.98483870454
582,37567.2205,38742.235373777134
583,37546.461,38778.66859652106
584,37526.4065,38725.07330708707
585,37505.6445,38683.275047540264
586,37484.6015,38638.52164206972
587,37465.3945,38655.82034946818
588,37445.621,38622.88714247376
589,37424.297,38596.33047278724
590,37403.5375,38562.90224616136
591,37383.4805,38538.608054438126
592,37363.566,38480.881658084814
593,37342.3825,38583.70063880405
594,37321.0565,38463.36238940423
595,37301.707,38455.715341932155
596,37282.6425,38410.09565911294
597,37261.8825,38446.95975483508
598,37241.121,38355.170775241
599,37220.6425,38387.324688614935
600,37199.455,38349.09907393634
601,37178.9765,38363.2405649539
602,37159.3475,38282.56725772834
603,37139.01,38235.25504524934
604,37117.26,38287.610023051435
605,37097.0645,38292.64608512328
606,37076.162,38185.62138241195
607,37054.836,38161.09905331206
608,37034.924,38187.22577624647
609,37014.588,38163.88099121125
610,36994.1075,38046.230246626976
611,36973.3435,38115.764593414664
612,36953.7125,38099.56777395125
613,36933.377,38072.22901149099
614,36913.889,38103.337847947514
615,36893.9745,38049.6961914142
